Column 1: Wavelength
Column 2: Bassanite GDS145
Column 3: Gypsum LASF41A
Column 4: Hannebachite BIR1LH058
Column 5: Alunite F1CC08B
Column 6: Jarosite LASF21A
Column 7: Kieserite F1CC15
Column 8: Magnesium Sulfate 799F366
  0.909000  0.922418  0.943770  0.589400  0.869423  0.403791  0.855682  0.948961
  0.909200  0.922402  0.943752  0.589570  0.869412  0.403738  0.855690  0.948869
  0.909300  0.922393  0.943743  0.589670  0.869407  0.403711  0.855694  0.948822
  0.909500  0.922376  0.943726  0.589520  0.869396  0.403659  0.855702  0.948730
  0.909700  0.922359  0.943708  0.589810  0.869385  0.403606  0.855710  0.948637
  0.909800  0.922350  0.943699  0.590340  0.869379  0.403579  0.855714  0.948591
  0.910000  0.922333  0.943681  0.590400  0.869368  0.403526  0.855722  0.948498
  0.910100  0.922322  0.943663  0.590160  0.869376  0.403544  0.855728  0.948511
  0.910300  0.922295  0.943627  0.590010  0.869392  0.403581  0.855740  0.948538
  0.910500  0.922269  0.943591  0.589750  0.869409  0.403618  0.855751  0.948565
  0.910600  0.922256  0.943573  0.589440  0.869417  0.403636  0.855757  0.948579
  0.910800  0.922229  0.943537  0.589410  0.869433  0.403673  0.855769  0.948606
  0.910900  0.922216  0.943519  0.589900  0.869441  0.403691  0.855775  0.948619
  0.911100  0.922186  0.943483  0.589990  0.869458  0.403728  0.855786  0.948646
  0.911300  0.922147  0.943447  0.589810  0.869474  0.403765  0.855798  0.948673
  0.911400  0.922128  0.943429  0.589530  0.869482  0.403783  0.855804  0.948686
  0.911600  0.922089  0.943393  0.589350  0.869498  0.403820  0.855815  0.948713
  0.911700  0.922069  0.943375  0.589430  0.869506  0.403838  0.855821  0.948726
  0.911900  0.922030  0.943339  0.589400  0.869523  0.403875  0.855833  0.948753
  0.912100  0.921987  0.943303  0.589600  0.869539  0.403912  0.855845  0.948780
  0.912200  0.921960  0.943285  0.589860  0.869547  0.403930  0.855851  0.948794
  0.912400  0.921905  0.943249  0.589750  0.869563  0.403967  0.855862  0.948821
  0.912500  0.921877  0.943231  0.589550  0.869572  0.403986  0.855868  0.948834
  0.912700  0.921822  0.943195  0.589140  0.869588  0.404022  0.855880  0.948861
  0.912900  0.921767  0.943159  0.589180  0.869604  0.404059  0.855891  0.948888
  0.913000  0.921739  0.943141  0.589320  0.869612  0.404077  0.855897  0.948901
  0.913200  0.921670  0.943105  0.589410  0.869628  0.404114  0.855909  0.948928
  0.913300  0.921632  0.943087  0.589280  0.869637  0.404133  0.855915  0.948942
  0.913500  0.921558  0.943051  0.589200  0.869653  0.404169  0.855926  0.948968
  0.913700  0.921483  0.943015  0.589150  0.869669  0.404206  0.855938  0.948995
  0.913800  0.921445  0.942997  0.588800  0.869677  0.404224  0.855944  0.949009
  0.914000  0.921371  0.942961  0.588890  0.869694  0.404261  0.855956  0.949036
  0.914200  0.921280  0.942925  0.588990  0.869710  0.404298  0.855967  0.949062
  0.914300  0.921233  0.942907  0.589290  0.869718  0.404316  0.855973  0.949076
  0.914500  0.921137  0.942871  0.589600  0.869734  0.404353  0.855985  0.949103
  0.914600  0.921089  0.942853  0.589220  0.869742  0.404371  0.855991  0.949116
  0.914800  0.920994  0.942817  0.589060  0.869759  0.404408  0.856002  0.949143
  0.915000  0.920898  0.942781  0.589080  0.869775  0.404445  0.856014  0.949170
  0.915100  0.920846  0.942807  0.589190  0.869829  0.404434  0.856017  0.949156
  0.915300  0.920736  0.942858  0.589370  0.869936  0.404412  0.856024  0.949127
  0.915400  0.920680  0.942884  0.589290  0.869990  0.404401  0.856028  0.949112
  0.915600  0.920569  0.942935  0.589360  0.870097  0.404379  0.856035  0.949083
  0.915800  0.920459  0.942986  0.589310  0.870204  0.404357  0.856042  0.949054
  0.915900  0.920403  0.943012  0.589190  0.870258  0.404346  0.856045  0.949040
  0.916100  0.920291  0.943063  0.589100  0.870365  0.404324  0.856052  0.949011
  0.916300  0.920172  0.943114  0.588800  0.870473  0.404303  0.856059  0.948982
  0.916400  0.920113  0.943140  0.588770  0.870526  0.404292  0.856062  0.948967
  0.916600  0.919995  0.943191  0.589310  0.870634  0.404270  0.856069  0.948938
  0.916700  0.919935  0.943217  0.589170  0.870687  0.404259  0.856072  0.948924
  0.916900  0.919817  0.943268  0.588860  0.870795  0.404237  0.856079  0.948895
  0.917100  0.919699  0.943319  0.589180  0.870902  0.404215  0.856086  0.948866
  0.917200  0.919639  0.943345  0.589290  0.870956  0.404204  0.856090  0.948851
  0.917400  0.919520  0.943396  0.589110  0.871063  0.404182  0.856097  0.948822
  0.917500  0.919461  0.943422  0.588790  0.871117  0.404171  0.856100  0.948808
  0.917700  0.919342  0.943473  0.588580  0.871224  0.404149  0.856107  0.948779
  0.917900  0.919224  0.943525  0.588550  0.871331  0.404127  0.856114  0.948750
  0.918000  0.919164  0.943550  0.588650  0.871385  0.404116  0.856117  0.948736
  0.918200  0.919051  0.943601  0.588860  0.871492  0.404094  0.856124  0.948707
  0.918400  0.918940  0.943653  0.588920  0.871599  0.404072  0.856131  0.948678
  0.918500  0.918884  0.943678  0.589020  0.871653  0.404061  0.856134  0.948663
  0.918700  0.918773  0.943730  0.589090  0.871760  0.404039  0.856141  0.948634
  0.918800  0.918717  0.943755  0.588970  0.871814  0.404029  0.856145  0.948620
  0.919000  0.918606  0.943807  0.589030  0.871921  0.404007  0.856152  0.948591
  0.919200  0.918505  0.943858  0.588990  0.872029  0.403985  0.856158  0.948562
  0.919300  0.918457  0.943884  0.588770  0.872082  0.403974  0.856162  0.948547
  0.919500  0.918360  0.943935  0.588490  0.872190  0.403952  0.856169  0.948518
  0.919700  0.918263  0.943986  0.588420  0.872297  0.403930  0.856176  0.948489
  0.919800  0.918215  0.944012  0.588580  0.872351  0.403919  0.856179  0.948475
  0.920000  0.918118  0.944063  0.588740  0.872458  0.403897  0.856186  0.948446
  0.920200  0.918037  0.943994  0.588550  0.872464  0.403956  0.856174  0.948441
  0.920300  0.918000  0.943960  0.588530  0.872468  0.403985  0.856169  0.948439
  0.920500  0.917925  0.943891  0.588610  0.872474  0.404044  0.856157  0.948434
  0.920600  0.917888  0.943856  0.588670  0.872478  0.404074  0.856151  0.948431
  0.920800  0.917813  0.943787  0.588560  0.872484  0.404132  0.856140  0.948427
  0.921000  0.917739  0.943718  0.588590  0.872491  0.404191  0.856128  0.948422
  0.921100  0.917708  0.943684  0.588600  0.872494  0.404221  0.856122  0.948419
  0.921300  0.917663  0.943615  0.588820  0.872500  0.404279  0.856111  0.948415
  0.921500  0.917618  0.943546  0.588720  0.872507  0.404338  0.856099  0.948410
  0.921600  0.917595  0.943511  0.588410  0.872510  0.404368  0.856094  0.948407
  0.921800  0.917550  0.943442  0.588140  0.872517  0.404427  0.856082  0.948402
  0.922000  0.917505  0.943373  0.587880  0.872523  0.404485  0.856070  0.948398
  0.922100  0.917491  0.943339  0.587940  0.872526  0.404515  0.856065  0.948395
  0.922300  0.917483  0.943270  0.588450  0.872533  0.404574  0.856053  0.948390
  0.922400  0.917479  0.943236  0.588620  0.872536  0.404603  0.856047  0.948388
  0.922600  0.917471  0.943167  0.588450  0.872543  0.404662  0.856036  0.948383
  0.922800  0.917463  0.943098  0.588000  0.872549  0.404721  0.856024  0.948378
  0.922900  0.917459  0.943063  0.587840  0.872553  0.404750  0.856018  0.948376
  0.923100  0.917460  0.942994  0.587860  0.872559  0.404809  0.856007  0.948371
  0.923300  0.917497  0.942925  0.587860  0.872566  0.404868  0.855995  0.948366
  0.923400  0.917515  0.942891  0.588010  0.872569  0.404897  0.855989  0.948364
  0.923600  0.917551  0.942822  0.588010  0.872575  0.404956  0.855978  0.948359
  0.923800  0.917588  0.942753  0.587980  0.872582  0.405015  0.855966  0.948354
  0.923900  0.917606  0.942718  0.587860  0.872585  0.405044  0.855961  0.948352
  0.924100  0.917653  0.942649  0.587720  0.872592  0.405103  0.855949  0.948347
  0.924300  0.917737  0.942580  0.587650  0.872598  0.405162  0.855937  0.948342
  0.924400  0.917779  0.942546  0.587720  0.872601  0.405191  0.855932  0.948340
  0.924600  0.917863  0.942477  0.587910  0.872608  0.405250  0.855920  0.948335
  0.924700  0.917905  0.942442  0.588000  0.872611  0.405280  0.855914  0.948332
  0.924900  0.917989  0.942374  0.587640  0.872618  0.405339  0.855903  0.948327
  0.925100  0.918082  0.942326  0.587560  0.872627  0.405394  0.855911  0.948304
  0.925200  0.918142  0.942313  0.587500  0.872633  0.405419  0.855924  0.948283
  0.925400  0.918264  0.942288  0.587150  0.872644  0.405470  0.855951  0.948240
  0.925600  0.918385  0.942262  0.587100  0.872656  0.405521  0.855978  0.948198
  0.925700  0.918446  0.942249  0.587290  0.872662  0.405547  0.855992  0.948177
  0.925900  0.918567  0.942223  0.586990  0.872674  0.405598  0.856019  0.948135
  0.926100  0.918693  0.942197  0.586840  0.872685  0.405649  0.856046  0.948092
  0.926200  0.918766  0.942184  0.587090  0.872691  0.405675  0.856060  0.948071
  0.926400  0.918912  0.942159  0.587240  0.872703  0.405726  0.856087  0.948029
  0.926600  0.919057  0.942133  0.587070  0.872714  0.405777  0.856114  0.947986
  0.926700  0.919130  0.942120  0.587100  0.872720  0.405803  0.856128  0.947965
  0.926900  0.919275  0.942094  0.587340  0.872732  0.405854  0.856155  0.947923
  0.927100  0.919422  0.942069  0.587000  0.872744  0.405905  0.856182  0.947881
  0.927200  0.919500  0.942056  0.586500  0.872750  0.405930  0.856196  0.947859
  0.927400  0.919656  0.942030  0.586560  0.872761  0.405981  0.856223  0.947817
  0.927600  0.919812  0.942004  0.586830  0.872773  0.406033  0.856250  0.947775
  0.927700  0.919889  0.941991  0.586680  0.872779  0.406058  0.856264  0.947754
  0.927900  0.920045  0.941965  0.586520  0.872790  0.406109  0.856291  0.947711
  0.928000  0.920123  0.941953  0.586850  0.872796  0.406135  0.856304  0.947690
  0.928200  0.920277  0.941927  0.587100  0.872808  0.406186  0.856332  0.947648
  0.928400  0.920429  0.941901  0.586820  0.872820  0.406237  0.856359  0.947606
  0.928500  0.920506  0.941888  0.586780  0.872825  0.406263  0.856372  0.947584
  0.928700  0.920659  0.941862  0.586860  0.872837  0.406314  0.856399  0.947542
  0.928900  0.920811  0.941837  0.586820  0.872849  0.406365  0.856427  0.947500
  0.929000  0.920888  0.941824  0.586610  0.872855  0.406390  0.856440  0.947479
  0.929200  0.921029  0.941798  0.586430  0.872866  0.406442  0.856467  0.947436
  0.929400  0.921165  0.941772  0.586520  0.872878  0.406493  0.856495  0.947394
  0.929500  0.921233  0.941759  0.586540  0.872884  0.406518  0.856508  0.947373
  0.929700  0.921370  0.941734  0.586470  0.872895  0.406569  0.856535  0.947330
  0.929900  0.921506  0.941708  0.586300  0.872907  0.406620  0.856562  0.947288
  0.930000  0.921574  0.941695  0.586080  0.872913  0.406646  0.856576  0.947267
  0.930200  0.921690  0.941728  0.586000  0.872963  0.406646  0.856562  0.947240
  0.930400  0.921796  0.941760  0.585900  0.873012  0.406647  0.856548  0.947213
  0.930500  0.921849  0.941776  0.585900  0.873037  0.406647  0.856541  0.947199
  0.930700  0.921956  0.941809  0.586120  0.873087  0.406647  0.856526  0.947172
  0.930900  0.922063  0.941842  0.586410  0.873136  0.406648  0.856512  0.947145
  0.931000  0.922116  0.941858  0.586550  0.873161  0.406648  0.856505  0.947132
  0.931200  0.922192  0.941891  0.586470  0.873211  0.406648  0.856491  0.947105
  0.931400  0.922256  0.941923  0.586500  0.873260  0.406649  0.856477  0.947077
  0.931600  0.922319  0.941956  0.586410  0.873310  0.406649  0.856462  0.947050
  0.931700  0.922350  0.941972  0.586620  0.873335  0.406649  0.856455  0.947037
  0.931900  0.922414  0.942005  0.586770  0.873385  0.406650  0.856441  0.947010
  0.932100  0.922466  0.942037  0.586720  0.873434  0.406650  0.856427  0.946983
  0.932200  0.922469  0.942054  0.586640  0.873459  0.406650  0.856420  0.946969
  0.932400  0.922476  0.942086  0.586540  0.873509  0.406651  0.856406  0.946942
  0.932600  0.922483  0.942119  0.586770  0.873558  0.406651  0.856391  0.946915
  0.932700  0.922486  0.942135  0.586930  0.873583  0.406651  0.856384  0.946901
  0.932900  0.922493  0.942168  0.586590  0.873633  0.406652  0.856370  0.946874
  0.933100  0.922486  0.942200  0.586380  0.873682  0.406652  0.856356  0.946847
  0.933200  0.922457  0.942217  0.586760  0.873707  0.406652  0.856349  0.946834
  0.933400  0.922399  0.942249  0.586660  0.873757  0.406653  0.856335  0.946807
  0.933600  0.922341  0.942282  0.586440  0.873806  0.406653  0.856320  0.946780
  0.933700  0.922311  0.942298  0.586550  0.873831  0.406653  0.856313  0.946766
  0.933900  0.922253  0.942331  0.586800  0.873881  0.406654  0.856299  0.946739
  0.934100  0.922184  0.942363  0.586960  0.873931  0.406654  0.856285  0.946712
  0.934200  0.922126  0.942380  0.587060  0.873955  0.406654  0.856278  0.946698
  0.934400  0.922011  0.942412  0.586810  0.874005  0.406655  0.856264  0.946671
  0.934600  0.921896  0.942445  0.586510  0.874055  0.406655  0.856249  0.946644
  0.934800  0.921781  0.942477  0.586600  0.874104  0.406656  0.856235  0.946617
  0.934900  0.921724  0.942494  0.586810  0.874129  0.406656  0.856228  0.946604
  0.935100  0.921600  0.942539  0.586870  0.874174  0.406737  0.856207  0.946547
  0.935300  0.921441  0.942597  0.586900  0.874215  0.406900  0.856178  0.946462
  0.935400  0.921361  0.942626  0.587010  0.874236  0.406981  0.856164  0.946420
  0.935600  0.921201  0.942684  0.587060  0.874277  0.407143  0.856135  0.946334
  0.935800  0.921041  0.942742  0.586960  0.874317  0.407305  0.856106  0.946249
  0.935900  0.920962  0.942771  0.587000  0.874338  0.407387  0.856092  0.946207
  0.936100  0.920796  0.942829  0.587010  0.874379  0.407549  0.856063  0.946121
  0.936300  0.920603  0.942887  0.587050  0.874419  0.407711  0.856034  0.946036
  0.936400  0.920507  0.942916  0.587090  0.874440  0.407793  0.856020  0.945994
  0.936600  0.920314  0.942974  0.587290  0.874481  0.407955  0.855991  0.945908
  0.936800  0.920122  0.943032  0.587130  0.874522  0.408117  0.855963  0.945823
  0.936900  0.920025  0.943061  0.587100  0.874542  0.408198  0.855948  0.945781
  0.937100  0.919829  0.943119  0.587080  0.874583  0.408361  0.855919  0.945695
  0.937300  0.919615  0.943177  0.586810  0.874624  0.408523  0.855891  0.945610
  0.937500  0.919402  0.943235  0.586760  0.874664  0.408686  0.855862  0.945525
  0.937600  0.919295  0.943264  0.586900  0.874685  0.408767  0.855848  0.945482
  0.937800  0.919082  0.943322  0.586830  0.874726  0.408929  0.855819  0.945397
  0.938000  0.918868  0.943380  0.586850  0.874767  0.409091  0.855790  0.945312
  0.938100  0.918760  0.943409  0.587020  0.874787  0.409173  0.855776  0.945269
  0.938300  0.918537  0.943467  0.587220  0.874828  0.409335  0.855747  0.945184
  0.938500  0.918315  0.943525  0.587140  0.874869  0.409497  0.855718  0.945099
  0.938600  0.918204  0.943554  0.586970  0.874889  0.409579  0.855704  0.945056
  0.938800  0.917982  0.943612  0.586940  0.874930  0.409741  0.855675  0.944971
  0.939000  0.917759  0.943670  0.587210  0.874971  0.409903  0.855647  0.944886
  0.939200  0.917539  0.943728  0.587550  0.875012  0.410066  0.855618  0.944801
  0.939300  0.917429  0.943757  0.587490  0.875032  0.410147  0.855604  0.944758
  0.939500  0.917209  0.943815  0.587440  0.875073  0.410309  0.855575  0.944673
  0.939700  0.916990  0.943873  0.587290  0.875114  0.410471  0.855546  0.944588
  0.939800  0.916880  0.943902  0.587090  0.875134  0.410553  0.855532  0.944545
  0.940000  0.916660  0.943960  0.587100  0.875175  0.410715  0.855503  0.944460
  0.940200  0.916451  0.943861  0.587130  0.875087  0.410744  0.855431  0.944430
  0.940300  0.916349  0.943811  0.587210  0.875043  0.410758  0.855395  0.944414
  0.940500  0.916144  0.943712  0.587090  0.874955  0.410787  0.855324  0.944384
  0.940700  0.915939  0.943612  0.587080  0.874866  0.410816  0.855252  0.944353
  0.940800  0.915837  0.943563  0.587150  0.874822  0.410831  0.855216  0.944338
  0.941000  0.915632  0.943463  0.587270  0.874734  0.410859  0.855144  0.944308
  0.941200  0.915444  0.943364  0.587280  0.874646  0.410888  0.855072  0.944277
  0.941400  0.915263  0.943265  0.587280  0.874558  0.410917  0.855001  0.944247
  0.941500  0.915173  0.943215  0.587330  0.874514  0.410932  0.854965  0.944231
  0.941700  0.914992  0.943116  0.587220  0.874426  0.410960  0.854893  0.944201
  0.941900  0.914811  0.943016  0.587270  0.874337  0.410989  0.854821  0.944170
  0.942000  0.914721  0.942967  0.587400  0.874293  0.411004  0.854785  0.944155
  0.942200  0.914556  0.942867  0.587220  0.874205  0.411033  0.854714  0.944125
  0.942400  0.914400  0.942768  0.587010  0.874117  0.411062  0.854642  0.944094
  0.942600  0.914243  0.942669  0.587000  0.874029  0.411090  0.854570  0.944064
  0.942700  0.914165  0.942619  0.587120  0.873985  0.411105  0.854534  0.944049
  0.942900  0.914008  0.942520  0.587300  0.873897  0.411134  0.854463  0.944018
  0.943100  0.913856  0.942421  0.587510  0.873809  0.411163  0.854391  0.943988
  0.943300  0.913721  0.942321  0.587630  0.873720  0.411192  0.854319  0.943957
  0.943400  0.913654  0.942272  0.587510  0.873676  0.411206  0.854283  0.943942
  0.943600  0.913520  0.942172  0.587400  0.873588  0.411235  0.854211  0.943911
  0.943800  0.913386  0.942073  0.587390  0.873500  0.411264  0.854140  0.943881
  0.943900  0.913319  0.942023  0.587480  0.873456  0.411278  0.854104  0.943866
  0.944100  0.913188  0.941924  0.587620  0.873368  0.411307  0.854032  0.943835
  0.944300  0.913075  0.941825  0.587600  0.873280  0.411336  0.853960  0.943805
  0.944500  0.912961  0.941725  0.587570  0.873191  0.411365  0.853888  0.943774
  0.944600  0.912905  0.941676  0.587570  0.873147  0.411379  0.853853  0.943759
  0.944800  0.912791  0.941576  0.587420  0.873059  0.411408  0.853781  0.943728
  0.945000  0.912678  0.941477  0.587450  0.872971  0.411437  0.853709  0.943698
  0.945100  0.912624  0.941454  0.587600  0.872974  0.411485  0.853674  0.943693
  0.945300  0.912530  0.941409  0.587700  0.872981  0.411579  0.853604  0.943684
  0.945500  0.912435  0.941364  0.587690  0.872988  0.411675  0.853534  0.943675
  0.945700  0.912341  0.941319  0.587520  0.872995  0.411770  0.853465  0.943665
  0.945800  0.912294  0.941297  0.587540  0.872999  0.411817  0.853430  0.943661
  0.946000  0.912199  0.941252  0.587520  0.873006  0.411912  0.853360  0.943651
  0.946200  0.912116  0.941207  0.587480  0.873012  0.412007  0.853290  0.943642
  0.946300  0.912078  0.941184  0.587380  0.873016  0.412055  0.853255  0.943637
  0.946500  0.912001  0.941139  0.587420  0.873023  0.412150  0.853185  0.943628
  0.946700  0.911924  0.941094  0.587510  0.873030  0.412244  0.853115  0.943619
  0.946900  0.911847  0.941049  0.587250  0.873037  0.412340  0.853046  0.943609
  0.947000  0.911808  0.941027  0.587160  0.873040  0.412387  0.853011  0.943605
  0.947200  0.911741  0.940982  0.587430  0.873047  0.412482  0.852941  0.943595
  0.947400  0.911680  0.940937  0.587380  0.873054  0.412577  0.852871  0.943586
  0.947600  0.911619  0.940892  0.587210  0.873061  0.412672  0.852801  0.943577
  0.947700  0.911588  0.940869  0.587370  0.873064  0.412720  0.852766  0.943572
  0.947900  0.911526  0.940824  0.587610  0.873071  0.412814  0.852696  0.943563
  0.948100  0.911467  0.940779  0.587460  0.873078  0.412910  0.852626  0.943554
  0.948300  0.911420  0.940734  0.587290  0.873085  0.413005  0.852557  0.943544
  0.948400  0.911396  0.940711  0.587330  0.873089  0.413052  0.852522  0.943540
  0.948600  0.911348  0.940666  0.587300  0.873096  0.413147  0.852452  0.943530
  0.948800  0.911301  0.940621  0.587370  0.873102  0.413242  0.852382  0.943521
  0.949000  0.911253  0.940576  0.587450  0.873109  0.413337  0.852312  0.943512
